# concentration (uM) 	 Tm (C)
3.000000E+00	1.225608E+01
6.000000E+00	1.453177E+01
1.500000E+01	1.782231E+01
3.000000E+01	2.050292E+01
6.000000E+01	2.332523E+01
1.500000E+02	2.727043E+01
3.000000E+02	3.041482E+01
6.000000E+02	3.369466E+01
1.500000E+03	3.827438E+01
1.800000E+03	3.921899E+01
2.400000E+03	4.074355E+01
3.000000E+03	4.195134E+01
4.500000E+03	4.420636E+01
