# temperature	A	A+A	A+B	A+SE	B	B+B	B+SE	SE	SE+SE
0.000000E+00	9.033048E-14	5.497679E-19	6.000000E-04	2.567782E-11	2.560856E-11	4.188981E-19	5.661742E-15	3.208963E-07	2.998395E-04
2.000000E+00	1.784701E-13	1.388654E-18	6.000000E-04	4.080721E-11	3.866491E-11	9.716869E-19	1.045454E-14	3.989061E-07	2.998005E-04
4.000000E+00	3.243901E-13	3.011193E-18	5.999999E-04	6.008607E-11	6.338012E-11	2.599673E-18	2.076225E-14	4.957060E-07	2.997521E-04
6.000000E+00	6.341354E-13	7.662977E-18	5.999999E-04	9.584271E-11	9.656498E-11	5.872120E-18	3.795192E-14	6.160358E-07	2.996919E-04
8.000000E+00	1.202717E-12	1.862515E-17	5.999999E-04	1.494016E-10	1.516696E-10	1.376783E-17	7.082042E-14	7.659530E-07	2.996169E-04
1.000000E+01	2.288449E-12	4.622087E-17	5.999998E-04	2.353183E-10	2.375430E-10	3.135585E-17	1.305445E-13	9.532347E-07	2.995233E-04
1.200000E+01	4.350188E-12	1.161030E-16	5.999996E-04	3.728829E-10	3.724572E-10	6.999056E-17	2.388257E-13	1.187906E-06	2.994059E-04
1.400000E+01	8.093940E-12	2.831807E-16	5.999994E-04	5.822030E-10	5.964426E-10	1.596353E-16	4.428535E-13	1.482933E-06	2.992582E-04
1.600000E+01	1.521777E-11	7.142777E-16	5.999991E-04	9.243572E-10	9.440565E-10	3.492941E-16	8.065890E-13	1.855121E-06	2.990720E-04
1.800000E+01	2.849385E-11	1.807840E-15	5.999985E-04	1.469988E-09	1.497019E-09	7.554619E-16	1.464753E-12	2.326289E-06	2.988361E-04
2.000000E+01	5.300243E-11	4.563319E-15	5.999976E-04	2.334290E-09	2.381174E-09	1.624264E-15	2.659457E-12	2.924768E-06	2.985364E-04
2.200000E+01	9.797925E-11	1.147883E-14	5.999962E-04	3.699847E-09	3.792969E-09	3.471845E-15	4.826837E-12	3.687326E-06	2.981545E-04
2.400000E+01	1.803437E-10	2.883735E-14	5.999940E-04	5.859424E-09	6.031066E-09	7.354962E-15	8.740696E-12	4.661593E-06	2.976663E-04
2.600000E+01	3.302310E-10	7.209108E-14	5.999904E-04	9.254635E-09	9.569093E-09	1.548045E-14	1.580364E-11	5.909083E-06	2.970408E-04
2.800000E+01	6.015059E-10	1.789350E-13	5.999848E-04	1.456050E-08	1.513378E-08	3.239969E-14	2.852360E-11	7.508918E-06	2.962382E-04
3.000000E+01	1.089864E-09	4.400046E-13	5.999761E-04	2.279280E-08	2.383204E-08	6.746664E-14	5.136652E-11	9.562296E-06	2.952074E-04
3.200000E+01	1.964478E-09	1.069675E-12	5.999626E-04	3.545812E-08	3.733222E-08	1.398207E-13	9.223505E-11	1.219775E-05	2.938834E-04
3.400000E+01	3.523115E-09	2.565850E-12	5.999417E-04	5.475732E-08	5.811998E-08	2.884217E-13	1.650037E-10	1.557707E-05	2.921840E-04
3.600000E+01	6.287720E-09	6.062260E-12	5.999098E-04	8.385235E-08	8.985737E-08	5.921305E-13	2.938143E-10	1.990171E-05	2.900071E-04
3.800000E+01	1.116958E-08	1.408694E-11	5.998616E-04	1.272062E-07	1.378813E-07	1.209588E-12	5.202506E-10	2.541908E-05	2.872266E-04
4.000000E+01	1.975314E-08	3.215524E-11	5.997892E-04	1.909978E-07	2.098952E-07	2.457887E-12	9.151607E-10	3.242781E-05	2.836901E-04
4.200000E+01	3.478097E-08	7.203528E-11	5.996815E-04	2.836054E-07	3.169219E-07	4.966592E-12	1.597811E-09	4.128048E-05	2.792172E-04
4.400000E+01	6.097461E-08	1.582739E-10	5.995226E-04	4.161217E-07	4.746265E-07	9.977555E-12	2.766420E-09	5.238161E-05	2.735998E-04
4.600000E+01	1.064094E-07	3.409134E-10	5.992901E-04	6.028346E-07	7.051402E-07	1.992475E-11	4.745811E-09	6.617752E-05	2.666075E-04
4.800000E+01	1.847808E-07	7.195945E-10	5.989523E-04	8.615227E-07	1.039605E-06	3.955117E-11	8.060196E-09	8.313424E-05	2.579981E-04
5.000000E+01	3.190702E-07	1.487916E-09	5.984646E-04	1.213351E-06	1.521700E-06	7.805108E-11	1.354123E-08	1.036987E-04	2.475372E-04
5.200000E+01	5.473263E-07	3.012339E-09	5.977646E-04	1.682024E-06	2.212585E-06	1.531709E-10	2.248347E-08	1.282390E-04	2.350282E-04
5.400000E+01	9.314955E-07	5.967283E-09	5.967647E-04	2.291825E-06	3.197798E-06	2.990449E-10	3.685925E-08	1.569631E-04	2.203541E-04
5.600000E+01	1.570366E-06	1.155621E-08	5.953423E-04	3.064192E-06	4.596906E-06	5.811605E-10	5.960212E-08	1.898192E-04	2.035285E-04
5.800000E+01	2.617560E-06	2.185550E-08	5.933259E-04	4.012839E-06	6.576901E-06	1.124895E-09	9.495903E-08	2.263941E-04	1.847491E-04
6.000000E+01	4.304875E-06	4.032000E-08	5.904764E-04	5.138116E-06	9.370395E-06	2.169718E-09	1.488961E-07	2.658371E-04	1.644379E-04
6.200000E+01	6.969879E-06	7.248616E-08	5.864628E-04	6.422312E-06	1.329930E-05	4.171147E-09	2.295195E-07	3.068511E-04	1.432485E-04
6.400000E+01	1.108446E-05	1.269073E-07	5.808333E-04	7.828423E-06	1.880328E-05	7.988828E-09	3.474423E-07	3.477890E-04	1.220176E-04
6.600000E+01	1.727815E-05	2.163732E-07	5.729845E-04	9.304580E-06	2.646904E-05	1.522180E-08	5.159929E-07	3.868696E-04	1.016549E-04
6.800000E+01	2.634662E-05	3.595028E-07	5.621403E-04	1.079403E-05	3.705100E-05	2.877377E-08	7.511078E-07	4.224742E-04	8.299035E-05
7.000000E+01	3.923169E-05	5.827845E-07	5.473557E-04	1.224704E-05	5.146618E-05	5.372576E-08	1.070676E-06	4.534270E-04	6.662763E-05
7.200000E+01	5.695341E-05	9.228582E-07	5.275719E-04	1.362894E-05	7.073807E-05	9.850130E-08	1.492992E-06	4.791563E-04	5.286090E-05
7.400000E+01	8.046992E-05	1.428002E-06	5.017542E-04	1.491984E-05	9.585979E-05	1.760337E-07	2.033904E-06	4.996842E-04	4.168104E-05
7.600000E+01	1.104450E-04	2.156282E-06	4.691359E-04	1.610655E-05	1.275535E-04	3.041116E-07	2.702367E-06	5.154826E-04	3.285422E-05
7.800000E+01	1.469319E-04	3.166304E-06	4.295642E-04	1.717127E-05	1.659342E-04	5.034280E-07	3.494717E-06	5.272803E-04	2.602686E-05
8.000000E+01	1.890462E-04	4.497212E-06	3.838755E-04	1.808387E-05	2.101517E-04	7.917772E-07	4.389191E-06	5.358943E-04	2.081630E-05
8.200000E+01	2.347904E-04	6.140720E-06	3.341248E-04	1.880334E-05	2.581823E-04	1.174572E-06	5.343755E-06	5.421161E-04	1.686842E-05
8.400000E+01	2.812327E-04	8.019752E-06	2.834375E-04	1.929026E-05	3.069899E-04	1.635871E-06	6.300837E-06	5.466410E-04	1.388395E-05
8.600000E+01	3.251277E-04	9.995240E-06	2.353564E-04	1.952545E-05	3.531687E-04	2.137433E-06	7.200066E-06	5.500273E-04	1.162360E-05
8.800000E+01	3.637749E-04	1.190876E-05	1.928838E-04	1.952374E-05	3.938615E-04	2.630043E-06	7.994586E-06	5.526764E-04	9.902658E-06
9.000000E+01	3.956657E-04	1.363792E-05	1.577254E-04	1.933303E-05	4.274697E-04	3.071301E-06	8.662331E-06	5.548409E-04	8.581850E-06
9.200000E+01	4.205861E-04	1.512807E-05	1.301387E-04	1.901908E-05	4.537791E-04	3.437895E-06	9.206437E-06	5.566586E-04	7.557956E-06
9.400000E+01	4.392455E-04	1.638683E-05	1.093342E-04	1.864670E-05	4.735663E-04	3.726316E-06	9.646864E-06	5.581956E-04	6.755433E-06
9.600000E+01	4.527641E-04	1.745770E-05	9.405326E-05	1.826722E-05	4.880450E-04	3.945854E-06	1.000998E-05	5.594841E-04	6.119359E-06
9.800000E+01	4.622875E-04	1.839443E-05	8.300862E-05	1.791498E-05	4.984487E-04	4.110740E-06	1.032116E-05	5.605442E-04	5.609831E-06
